Time[s], Phase A, Phase B, Phase C
 Time [s],Phase A-Analog,Phase B-Analog,Phase C-Analog
0.000000000000000, 0.007230309303850, 0.697173774242401, 1.865787148475647
0.000000200000000, 0.012701936066151, 0.697173774242401, 1.856149077415466
0.000000400000000, 0.035956349223852, 0.697173774242401, 1.824481248855591
0.000000600000000, 0.094776339828968, 0.694423854351044, 1.751507759094238
0.000000800000000, 0.209680512547493, 0.688924014568329, 1.617952346801758
0.000001000000000, 0.384772568941116, 0.682049214839935, 1.425191879272461
0.000001200000000, 0.600901842117310, 0.676549375057220, 1.200763702392578
0.000001400000000, 0.821134805679321, 0.675174415111542, 0.983219802379608
0.000001600000000, 1.014009714126587, 0.680674254894257, 0.795966863632202
0.000001800000000, 1.167215228080750, 0.693048894405365, 0.650019705295563
0.000002000000000, 1.286223173141479, 0.709548413753510, 0.535740315914154
0.000002200000000, 1.383344531059265, 0.727422893047333, 0.442113846540451
0.000002400000000, 1.464051008224487, 0.743922412395477, 0.363632827997208
0.000002600000000, 1.533814311027527, 0.754922032356262, 0.300297260284424
0.000002800000000, 1.591266393661499, 0.761796832084656, 0.247976586222649
0.000003000000000, 1.639143109321594, 0.763171792030334, 0.206670776009560
0.000003200000000, 1.677444458007813, 0.761796832084656, 0.172249287366867
0.000003400000000, 1.710274219512939, 0.759046912193298, 0.143335223197937
0.000003600000000, 1.736264467239380, 0.757671952247620, 0.118551738560200
0.000003800000000, 1.758150935173035, 0.757671952247620, 0.099275700747967
0.000004000000000, 1.777301669120789, 0.761796832084656, 0.084130242466927
0.000004200000000, 1.790980696678162, 0.767296671867371, 0.074492223560810
0.000004400000000, 1.796452403068542, 0.775546431541443, 0.074492223560810
0.000004600000000, 1.781405329704285, 0.783796191215515, 0.097898840904236
0.000004800000000, 1.723953247070313, 0.789296030998230, 0.162611261010170
0.000005000000000, 1.604945421218872, 0.793420910835266, 0.286528676748276
0.000005200000000, 1.425749659538269, 0.792045950889587, 0.468274176120758
0.000005400000000, 1.206884503364563, 0.787921071052551, 0.681687474250793
0.000005600000000, 0.988019466400146, 0.778296351432800, 0.892347097396851
0.000005800000000, 0.799248337745667, 0.764546751976013, 1.072715759277344
0.000006000000000, 0.650146484375000, 0.749422192573547, 1.215909123420715
0.000006200000000, 0.533874392509460, 0.734297692775726, 1.327434778213501
0.000006400000000, 0.440856754779816, 0.721923053264618, 1.418307542800903
0.000006600000000, 0.362886071205139, 0.713673293590546, 1.495411753654480
0.000006800000000, 0.298594444990158, 0.712298333644867, 1.561501026153564
0.000007000000000, 0.245246082544327, 0.715048253536224, 1.615198612213135
0.000007200000000, 0.202840968966484, 0.719173133373260, 1.659258127212524
0.000007400000000, 0.167275398969650, 0.724672973155975, 1.695056438446045
0.000007600000000, 0.138549357652664, 0.728797852993011, 1.725347399711609
0.000007800000000, 0.113927036523819, 0.730172812938690, 1.750130891799927
0.000008000000000, 0.094776339828968, 0.730172812938690, 1.770783782005310
0.000008200000000, 0.079729370772839, 0.728797852993011, 1.788682937622070
0.000008400000000, 0.067418202757835, 0.727422893047333, 1.803828358650208
0.000008600000000, 0.057842858135700, 0.724672973155975, 1.816220164299011
0.000008800000000, 0.049635417759418, 0.723298013210297, 1.825858116149902
0.000009000000000, 0.041427977383137, 0.721923053264618, 1.834119319915771
0.000009200000000, 0.035956349223852, 0.721923053264618, 1.839626789093018
0.000009400000000, 0.030484724789858, 0.723298013210297, 1.845134258270264
0.000009600000000, 0.026381004601717, 0.726047933101654, 1.847887873649597
0.000009800000000, 0.022277282550931, 0.727422893047333, 1.850641608238220
0.000010000000000, 0.020909376442432, 0.728797852993011, 1.852018475532532
0.000010200000000, 0.019541470333934, 0.731547772884369, 1.853395342826843
0.000010400000000, 0.018173562362790, 0.732922732830048, 1.856149077415466
0.000010600000000, 0.016805656254292, 0.734297692775726, 1.857525944709778
0.000010800000000, 0.015437749214470, 0.735672652721405, 1.860279679298401
0.000011000000000, 0.014069843105972, 0.735672652721405, 1.861656546592712
0.000011200000000, 0.012701936066151, 0.737047612667084, 1.863033413887024
0.000011400000000, 0.012701936066151, 0.737047612667084, 1.863033413887024
0.000011600000000, 0.011334029026330, 0.738422572612762, 1.863033413887024
0.000011800000000, 0.009966122917831, 0.739797532558441, 1.864410281181335
0.000012000000000, 0.007230309303850, 0.741172492504120, 1.864410281181335
0.000012200000000, 0.005862402264029, 0.743922412395477, 1.864410281181335
0.000012400000000, 0.005862402264029, 0.745297372341156, 1.864410281181335
0.000012600000000, 0.005862402264029, 0.746672272682190, 1.864410281181335
0.000012800000000, 0.005862402264029, 0.748047232627869, 1.864410281181335
0.000013000000000, 0.005862402264029, 0.748047232627869, 1.865787148475647
0.000013200000000, 0.005862402264029, 0.748047232627869, 1.865787148475647
0.000013400000000, 0.005862402264029, 0.748047232627869, 1.865787148475647
0.000013600000000, 0.004494495689869, 0.748047232627869, 1.865787148475647
0.000013800000000, 0.004494495689869, 0.749422192573547, 1.865787148475647
0.000014000000000, 0.004494495689869, 0.749422192573547, 1.867164015769958
0.000014200000000, 0.004494495689869, 0.750797152519226, 1.867164015769958
0.000014400000000, 0.004494495689869, 0.752172112464905, 1.868540763854980
0.000014600000000, 0.004494495689869, 0.754922032356262, 1.868540763854980
0.000014800000000, 0.004494495689869, 0.756296992301941, 1.868540763854980
0.000015000000000, 0.004494495689869, 0.757671952247620, 1.868540763854980
0.000015200000000, 0.004494495689869, 0.759046912193298, 1.868540763854980
0.000015400000000, 0.004494495689869, 0.759046912193298, 1.868540763854980
0.000015600000000, 0.004494495689869, 0.760421872138977, 1.868540763854980
0.000015800000000, 0.004494495689869, 0.760421872138977, 1.867164015769958
0.000016000000000, 0.004494495689869, 0.761796832084656, 1.868540763854980
0.000016200000000, 0.004494495689869, 0.763171792030334, 1.868540763854980
0.000016400000000, 0.005862402264029, 0.764546751976013, 1.868540763854980
0.000016600000000, 0.008598215878010, 0.767296671867371, 1.868540763854980
0.000016800000000, 0.014069843105972, 0.768671631813049, 1.864410281181335
0.000017000000000, 0.031852629035711, 0.770046591758728, 1.843757390975952
0.000017200000000, 0.076993554830551, 0.768671631813049, 1.787306070327759
0.000017400000000, 0.170011207461357, 0.763171792030334, 1.674403548240662
0.000017600000000, 0.324584662914276, 0.753547072410583, 1.499542355537415
0.000017800000000, 0.528402805328369, 0.745297372341156, 1.281998395919800
0.000018000000000, 0.751371562480927, 0.739797532558441, 1.057570219039917
0.000018200000000, 0.956557571887970, 0.742547452449799, 0.859302401542664
0.000018400000000, 1.124810099601746, 0.750797152519226, 0.700963556766510
0.000018600000000, 1.256129145622253, 0.765921711921692, 0.577046155929565
0.000018800000000, 1.358722209930420, 0.782421231269836, 0.477912217378616
0.000019000000000, 1.444900274276733, 0.797545790672302, 0.395300596952438
0.000019200000000, 1.517399311065674, 0.809920430183411, 0.326457589864731
0.000019400000000, 1.577587246894836, 0.816795229911804, 0.268629491329193
0.000019600000000, 1.626831889152527, 0.818170189857483, 0.221816241741180
0.000019800000000, 1.667869091033936, 0.818170189857483, 0.184641018509865
0.000020000000000, 1.700698852539063, 0.815420269966125, 0.154350101947784
0.000020200000000, 1.729424953460693, 0.812670350074768, 0.128189757466316
0.000020400000000, 1.752679347991943, 0.812670350074768, 0.107536859810352
0.000020600000000, 1.771830081939697, 0.815420269966125, 0.091014541685581
0.000020800000000, 1.788244962692261, 0.820920109748840, 0.078622803092003
0.000021000000000, 1.796452403068542, 0.827794909477234, 0.074492223560810
0.000021200000000, 1.788244962692261, 0.834669709205627, 0.088260821998119
0.000021400000000, 1.745839834213257, 0.840169548988342, 0.139204636216164
0.000021600000000, 1.645982623100281, 0.845669388771057, 0.245222866535187
0.000021800000000, 1.483201742172241, 0.848419308662415, 0.410446077585220
0.000022000000000, 1.272544026374817, 0.845669388771057, 0.618351936340332
0.000022200000000, 1.049575209617615, 0.840169548988342, 0.833142101764679
0.000022400000000, 0.848492980003357, 0.829169869422913, 1.023148775100708
0.000022600000000, 0.687079966068268, 0.815420269966125, 1.175980210304260
0.000022800000000, 0.563968360424042, 0.800295710563660, 1.295767068862915
0.000023000000000, 0.465479075908661, 0.787921071052551, 1.392147302627563
0.000023200000000, 0.383404672145844, 0.779671311378479, 1.473381996154785
0.000023400000000, 0.315009325742722, 0.775546431541443, 1.542225003242493
0.000023600000000, 0.258925139904022, 0.776921391487122, 1.598676204681396
0.000023800000000, 0.212416321039200, 0.781046271324158, 1.645489454269409
0.000024000000000, 0.174114927649498, 0.785171151161194, 1.682664752006531
0.000024200000000, 0.142653077840805, 0.790670990943909, 1.714332461357117
0.000024400000000, 0.118030756711960, 0.793420910835266, 1.740492820739746
0.000024600000000, 0.097512155771255, 0.796170830726624, 1.763899445533752
0.000024800000000, 0.081097275018692, 0.794795870780945, 1.781798601150513
0.000025000000000, 0.067418202757835, 0.793420910835266, 1.796944141387939
0.000025200000000, 0.056474953889847, 0.792045950889587, 1.810712695121765
0.000025400000000, 0.048267513513565, 0.789296030998230, 1.821727633476257
0.000025600000000, 0.040060073137283, 0.789296030998230, 1.829988718032837
0.000025800000000, 0.034588444977999, 0.789296030998230, 1.836873054504395
0.000026000000000, 0.027748910710216, 0.789296030998230, 1.842380523681641
0.000026200000000, 0.023645190522075, 0.792045950889587, 1.845134258270264
0.000026400000000, 0.020909376442432, 0.793420910835266, 1.849264740943909
0.000026600000000, 0.019541470333934, 0.796170830726624, 1.850641608238220
0.000026800000000, 0.019541470333934, 0.798920750617981, 1.853395342826843
0.000027000000000, 0.019541470333934, 0.800295710563660, 1.856149077415466
0.000027200000000, 0.018173562362790, 0.801670670509338, 1.858902812004089
0.000027400000000, 0.015437749214470, 0.803045630455017, 1.860279679298401
0.000027600000000, 0.014069843105972, 0.803045630455017, 1.861656546592712
0.000027800000000, 0.012701936066151, 0.803045630455017, 1.863033413887024
0.000028000000000, 0.012701936066151, 0.804420590400696, 1.863033413887024
0.000028200000000, 0.011334029026330, 0.804420590400696, 1.864410281181335
0.000028400000000, 0.009966122917831, 0.805795550346375, 1.864410281181335
0.000028600000000, 0.008598215878010, 0.807170510292053, 1.865787148475647
0.000028800000000, 0.007230309303850, 0.809920430183411, 1.865787148475647
0.000029000000000, 0.007230309303850, 0.811295390129089, 1.865787148475647
0.000029200000000, 0.007230309303850, 0.812670350074768, 1.865787148475647
0.000029400000000, 0.005862402264029, 0.814045310020447, 1.865787148475647
0.000029600000000, 0.005862402264029, 0.815420269966125, 1.865787148475647
0.000029800000000, 0.005862402264029, 0.815420269966125, 1.865787148475647
0.000030000000000, 0.004494495689869, 0.814045310020447, 1.865787148475647
0.000030200000000, 0.004494495689869, 0.814045310020447, 1.867164015769958
0.000030400000000, 0.004494495689869, 0.815420269966125, 1.867164015769958
0.000030600000000, 0.004494495689869, 0.815420269966125, 1.867164015769958
0.000030800000000, 0.004494495689869, 0.816795229911804, 1.867164015769958
0.000031000000000, 0.004494495689869, 0.818170189857483, 1.868540763854980
0.000031200000000, 0.005862402264029, 0.820920109748840, 1.868540763854980
0.000031400000000, 0.005862402264029, 0.822295069694519, 1.869917631149292
0.000031600000000, 0.007230309303850, 0.823670029640198, 1.869917631149292
0.000031800000000, 0.007230309303850, 0.823670029640198, 1.869917631149292
0.000032000000000, 0.005862402264029, 0.823670029640198, 1.869917631149292
0.000032200000000, 0.005862402264029, 0.823670029640198, 1.868540763854980
0.000032400000000, 0.004494495689869, 0.823670029640198, 1.868540763854980
0.000032600000000, 0.004494495689869, 0.825044989585876, 1.867164015769958
0.000032800000000, 0.004494495689869, 0.826419949531555, 1.867164015769958
0.000033000000000, 0.005862402264029, 0.827794909477234, 1.868540763854980
0.000033200000000, 0.007230309303850, 0.829169869422913, 1.868540763854980
0.000033400000000, 0.009966122917831, 0.831919789314270, 1.867164015769958
0.000033600000000, 0.020909376442432, 0.833294749259949, 1.853395342826843
0.000033800000000, 0.053739137947559, 0.831919789314270, 1.810712695121765
0.000034000000000, 0.128974005579948, 0.826419949531555, 1.718463063240051
0.000034200000000, 0.263028860092163, 0.818170189857483, 1.564254760742188
0.000034400000000, 0.454535812139511, 0.808545470237732, 1.357725739479065
0.000034600000000, 0.676136732101440, 0.800295710563660, 1.130543828010559
0.000034800000000, 0.889530181884766, 0.796170830726624, 0.919884264469147
0.000035000000000, 1.070093870162964, 0.798920750617981, 0.746399879455566
0.000035200000000, 1.212356209754944, 0.808545470237732, 0.612844467163086
0.000035400000000, 1.324524521827698, 0.822295069694519, 0.506826281547546
0.000035600000000, 1.416174292564392, 0.837419629096985, 0.420084089040756
0.000035800000000, 1.494144916534424, 0.851169228553772, 0.347110509872437
0.000036000000000, 1.558436632156372, 0.860793948173523, 0.286528676748276
0.000036200000000, 1.613152861595154, 0.864918828010559, 0.238338559865952
0.000036400000000, 1.655557990074158, 0.866293787956238, 0.198409616947174
0.000036600000000, 1.691123485565186, 0.864918828010559, 0.165364980697632
0.000036800000000, 1.721217513084412, 0.862168908119202, 0.137827783823013
0.000037000000000, 1.745839834213257, 0.860793948173523, 0.115798018872738
0.000037200000000, 1.766358375549316, 0.862168908119202, 0.097898840904236
0.000037400000000, 1.784141182899475, 0.866293787956238, 0.084130242466927
0.000037600000000, 1.796452403068542, 0.871793627738953, 0.075869083404541
0.000037800000000, 1.795084476470947, 0.877293467521667, 0.082753382623196
0.000038000000000, 1.764990448951721, 0.884168267250061, 0.118551738560200
0.000038200000000, 1.684283971786499, 0.889668107032776, 0.206670776009560
0.000038400000000, 1.539285898208618, 0.893792986869812, 0.355371654033661
0.000038600000000, 1.339571475982666, 0.895167946815491, 0.555016338825226
0.000038800000000, 1.116602659225464, 0.892418026924133, 0.771183371543884
0.000039000000000, 0.905945062637329, 0.884168267250061, 0.972204923629761
0.000039200000000, 0.732220888137817, 0.873168587684631, 1.136051297187805
0.000039400000000, 0.596798121929169, 0.860793948173523, 1.264099240303040
0.000039600000000, 0.491469293832779, 0.848419308662415, 1.365986943244934
0.000039800000000, 0.405291169881821, 0.840169548988342, 1.451352238655090
0.000040000000000, 0.334160029888153, 0.836044669151306, 1.522948980331421
0.000040200000000, 0.275340020656586, 0.836044669151306, 1.583530783653259
0.000040400000000, 0.226095393300056, 0.840169548988342, 1.633097767829895
0.000040600000000, 0.186426088213921, 0.845669388771057, 1.674403548240662
0.000040800000000, 0.153596326708794, 0.849794268608093, 1.707448244094849
0.000041000000000, 0.126238197088242, 0.855294108390808, 1.736362218856812
0.000041200000000, 0.105719596147537, 0.858044028282166, 1.759768843650818
0.000041400000000, 0.087936811149120, 0.859418988227844, 1.780421733856201
0.000041600000000, 0.074257738888264, 0.859418988227844, 1.798321008682251
0.000041800000000, 0.063314482569695, 0.858044028282166, 1.812089562416077
0.000042000000000, 0.053739137947559, 0.856669068336487, 1.823104500770569
0.000042200000000, 0.044163793325424, 0.855294108390808, 1.831365585327148
0.000042400000000, 0.037324257194996, 0.853919148445129, 1.836873054504395
0.000042600000000, 0.031852629035711, 0.853919148445129, 1.842380523681641
0.000042800000000, 0.026381004601717, 0.855294108390808, 1.846511006355286
0.000043000000000, 0.023645190522075, 0.856669068336487, 1.849264740943909
0.000043200000000, 0.020909376442432, 0.859418988227844, 1.852018475532532
0.000043400000000, 0.020909376442432, 0.862168908119202, 1.854772210121155
0.000043600000000, 0.019541470333934, 0.863543868064880, 1.857525944709778
0.000043800000000, 0.018173562362790, 0.863543868064880, 1.858902812004089
0.000044000000000, 0.016805656254292, 0.863543868064880, 1.860279679298401
0.000044200000000, 0.014069843105972, 0.863543868064880, 1.861656546592712
0.000044400000000, 0.012701936066151, 0.863543868064880, 1.861656546592712
0.000044600000000, 0.011334029026330, 0.863543868064880, 1.863033413887024
0.000044800000000, 0.011334029026330, 0.864918828010559, 1.863033413887024
0.000045000000000, 0.009966122917831, 0.866293787956238, 1.863033413887024
0.000045200000000, 0.008598215878010, 0.866293787956238, 1.863033413887024
0.000045400000000, 0.007230309303850, 0.867668747901917, 1.864410281181335
0.000045600000000, 0.005862402264029, 0.869043707847595, 1.864410281181335
0.000045800000000, 0.005862402264029, 0.871793627738953, 1.864410281181335
0.000046000000000, 0.005862402264029, 0.873168587684631, 1.864410281181335
0.000046200000000, 0.005862402264029, 0.873168587684631, 1.864410281181335
0.000046400000000, 0.004494495689869, 0.873168587684631, 1.865787148475647
0.000046600000000, 0.004494495689869, 0.873168587684631, 1.865787148475647
0.000046800000000, 0.004494495689869, 0.873168587684631, 1.865787148475647
0.000047000000000, 0.004494495689869, 0.874543547630310, 1.865787148475647
0.000047200000000, 0.004494495689869, 0.874543547630310, 1.867164015769958
0.000047400000000, 0.004494495689869, 0.877293467521667, 1.867164015769958
0.000047600000000, 0.004494495689869, 0.878668427467346, 1.868540763854980
0.000047800000000, 0.004494495689869, 0.880043387413025, 1.868540763854980
0.000048000000000, 0.004494495689869, 0.880043387413025, 1.869917631149292
0.000048200000000, 0.004494495689869, 0.881418347358704, 1.869917631149292
0.000048400000000, 0.004494495689869, 0.881418347358704, 1.868540763854980
0.000048600000000, 0.003126588882878, 0.881418347358704, 1.868540763854980
0.000048800000000, 0.003126588882878, 0.882793307304382, 1.867164015769958
0.000049000000000, 0.003126588882878, 0.882793307304382, 1.867164015769958
0.000049200000000, 0.003126588882878, 0.884168267250061, 1.867164015769958
0.000049400000000, 0.004494495689869, 0.885543227195740, 1.868540763854980
0.000049600000000, 0.004494495689869, 0.886918187141418, 1.868540763854980
0.000049800000000, 0.005862402264029, 0.888293147087097, 1.869917631149292
0.000050000000000, 0.007230309303850, 0.889668107032776, 1.867164015769958
0.000050200000000, 0.014069843105972, 0.889668107032776, 1.858902812004089
0.000050400000000, 0.037324257194996, 0.889668107032776, 1.827234983444214
0.000050600000000, 0.096144251525402, 0.885543227195740, 1.754261493682861
0.000050800000000, 0.209680512547493, 0.878668427467346, 1.622082829475403
0.000051000000000, 0.383404672145844, 0.869043707847595, 1.432076215744019
0.000051200000000, 0.599533915519714, 0.858044028282166, 1.209024906158447
0.000051400000000, 0.821134805679321, 0.851169228553772, 0.991481006145477
0.000051600000000, 1.015377640724182, 0.849794268608093, 0.805604875087738
0.000051800000000, 1.171319007873535, 0.853919148445129, 0.659657716751099
0.000052000000000, 1.293062686920166, 0.862168908119202, 0.545378327369690
0.000052200000000, 1.390184044837952, 0.874543547630310, 0.451751857995987
0.000052400000000, 1.470890522003174, 0.886918187141418, 0.373270839452744
0.000052600000000, 1.539285898208618, 0.896542906761169, 0.308558434247971
0.000052800000000, 1.595370054244995, 0.903417706489563, 0.254860877990723
