Time[s], Phase A, Phase B, Phase C
 Time [s],Phase A-Analog,Phase B-Analog,Phase C-Analog
0.589000000000000, 1.877158880233765, 0.385057955980301, 3.091192483901978
0.589000200000000, 1.904516935348511, 0.726047933101654, 2.826835393905640
0.589000400000000, 1.925035595893860, 1.142660617828369, 2.488127946853638
0.589000600000000, 1.919564008712769, 1.552398562431335, 2.119129419326782
0.589000800000000, 1.873055100440979, 1.885138750076294, 1.757015109062195
0.589001000000000, 1.789612770080566, 2.118881940841675, 1.427945613861084
0.589001200000000, 1.691123485565186, 2.279752016067505, 1.145689368247986
0.589001400000000, 1.603577494621277, 2.408998250961304, 0.914376854896545
0.589001600000000, 1.537917971611023, 2.531369686126709, 0.731254458427429
0.589001800000000, 1.496880769729614, 2.646866321563721, 0.588061034679413
0.589002000000000, 1.469522595405579, 2.749988317489624, 0.475158482789993
0.589002200000000, 1.453107714653015, 2.839360713958740, 0.385662585496902
0.589002400000000, 1.447636127471924, 2.919108152389526, 0.316819578409195
0.589002600000000, 1.453107714653015, 2.993355989456177, 0.268629491329193
0.589002800000000, 1.465418934822083, 3.060729026794434, 0.232831120491028
0.589003000000000, 1.477730035781860, 3.117102384567261, 0.205293923616409
0.589003200000000, 1.485937476158142, 3.161101102828979, 0.180510446429253
0.589003400000000, 1.492776989936829, 3.196850061416626, 0.159857541322708
0.589003600000000, 1.495512843132019, 3.227099180221558, 0.141958355903625
0.589003800000000, 1.495512843132019, 3.250473499298096, 0.126812905073166
0.589004000000000, 1.492776989936829, 3.269722938537598, 0.114421159029007
0.589004200000000, 1.485937476158142, 3.283472537994385, 0.102029420435429
0.589004400000000, 1.476362109184265, 3.293097257614136, 0.089637681841850
0.589004600000000, 1.465418934822083, 3.298597097396851, 0.077245943248272
0.589004800000000, 1.454475641250610, 3.302721977233887, 0.066231057047844
0.589005000000000, 1.443532347679138, 3.305471897125244, 0.056593041867018
0.589005200000000, 1.432589173316956, 3.306846857070923, 0.046955019235611
0.589005400000000, 1.423013806343079, 3.308221817016602, 0.040070720016956
0.589005600000000, 1.416174292564392, 3.309596776962280, 0.034563280642033
0.589005800000000, 1.410702586174011, 3.312346696853638, 0.033186420798302
0.589006000000000, 1.406598925590515, 3.309596776962280, 0.037317000329494
0.589006200000000, 1.405230998992920, 3.288972377777100, 0.063477337360382
0.589006400000000, 1.406598925590515, 3.221599340438843, 0.141958355903625
0.589006600000000, 1.414806365966797, 3.073103666305542, 0.312689006328583
0.589006800000000, 1.428485393524170, 2.815986394882202, 0.592191576957703
0.589007000000000, 1.446268200874329, 2.462621688842773, 0.955682635307312
0.589007200000000, 1.462683081626892, 2.059758663177490, 1.338449716567993
0.589007400000000, 1.476362109184265, 1.666520237922668, 1.675780415534973
0.589007600000000, 1.491409182548523, 1.324155330657959, 1.940137505531311
0.589007800000000, 1.516031503677368, 1.049163341522217, 2.145289659500122
0.589008000000000, 1.555700778961182, 0.836044669151306, 2.317397117614746
0.589008200000000, 1.607681274414063, 0.673799455165863, 2.477113008499146
0.589008400000000, 1.662397503852844, 0.547303199768066, 2.624436855316162
0.589008600000000, 1.711642146110535, 0.449681043624878, 2.753861904144287
0.589008800000000, 1.749943494796753, 0.372683316469193, 2.865387439727783
0.589009000000000, 1.778669595718384, 0.313560068607330, 2.959013938903809
0.589009200000000, 1.795084476470947, 0.266811460256577, 3.038871765136719
0.589009400000000, 1.803291916847229, 0.228312581777573, 3.106338024139404
0.589009600000000, 1.803291916847229, 0.193938598036766, 3.160035610198975
0.589009800000000, 1.797820210456848, 0.163689494132996, 3.201341390609741
0.589010000000000, 1.789612770080566, 0.136190295219421, 3.233009099960327
0.589010200000000, 1.781405329704285, 0.112815991044044, 3.256415605545044
0.589010400000000, 1.773197889328003, 0.090816639363766, 3.274314880371094
0.589010600000000, 1.767726302146912, 0.071567207574844, 3.286706686019897
0.589010800000000, 1.763622641563416, 0.052317772060633, 3.294967889785767
0.589011000000000, 1.760886788368225, 0.037193216383457, 3.300475120544434
0.589011200000000, 1.759518861770630, 0.022068664431572, 3.305982589721680
0.589011400000000, 1.758150935173035, 0.009694028645754, 3.311490058898926
0.589011600000000, 1.756783008575439, 0.000069312605774, 3.316997528076172
0.589011800000000, 1.755415201187134, -0.005430525168777, 3.323881864547729
0.589012000000000, 1.754047274589539, -0.009555404074490, 3.329389333724976
0.589012200000000, 1.754047274589539, -0.010930363088846, 3.336273670196533
0.589012400000000, 1.754047274589539, -0.012305323034525, 3.343158006668091
0.589012600000000, 1.752679347991943, -0.013680282048881, 3.348665237426758
0.589012800000000, 1.751311421394348, -0.015055241063237, 3.354172706604004
0.589013000000000, 1.748575568199158, -0.015055241063237, 3.358303308486938
0.589013200000000, 1.745839834213257, -0.015055241063237, 3.361057043075562
0.589013400000000, 1.741736054420471, -0.015055241063237, 3.363810777664185
0.589013600000000, 1.739000320434570, -0.015055241063237, 3.366564512252808
0.589013800000000, 1.734896540641785, -0.015055241063237, 3.369318246841431
0.589014000000000, 1.732160687446594, -0.016430201008916, 3.372071981430054
0.589014200000000, 1.729424953460693, -0.017805160954595, 3.374825716018677
0.589014400000000, 1.725321173667908, -0.017805160954595, 3.377579450607300
0.589014600000000, 1.722585439682007, -0.019180119037628, 3.378956317901611
0.589014800000000, 1.718481659889221, -0.020555078983307, 3.380333185195923
0.589015000000000, 1.715745806694031, -0.021930038928986, 3.380333185195923
0.589015200000000, 1.711642146110535, -0.023304998874664, 3.381710052490234
0.589015400000000, 1.707538366317749, -0.023304998874664, 3.383086919784546
0.589015600000000, 1.704802632331848, -0.023304998874664, 3.384463787078857
0.589015800000000, 1.703434705734253, -0.021930038928986, 3.385840654373169
0.589016000000000, 1.704802632331848, -0.010930363088846, 3.381710052490234
0.589016200000000, 1.708906292915344, 0.022068664431572, 3.362433910369873
0.589016400000000, 1.719849586486816, 0.111441031098366, 3.297721624374390
0.589016600000000, 1.739000320434570, 0.297060549259186, 3.157281875610352
0.589016800000000, 1.767726302146912, 0.600926578044891, 2.923215627670288
0.589017000000000, 1.795084476470947, 1.001039862632751, 2.606537818908691
0.589017200000000, 1.804659843444824, 1.421777367591858, 2.241669893264771
0.589017400000000, 1.775933742523193, 1.784766674041748, 1.874048233032227
0.589017600000000, 1.707538366317749, 2.048758983612061, 1.531210064888000
0.589017800000000, 1.617256522178650, 2.228878498077393, 1.233808398246765
0.589018000000000, 1.528342604637146, 2.364999532699585, 0.985973536968231
0.589018200000000, 1.461315155029297, 2.487370967864990, 0.787705719470978
0.589018400000000, 1.416174292564392, 2.606992483139038, 0.632120549678802
0.589018600000000, 1.387448191642761, 2.714239358901978, 0.509579956531525
0.589018800000000, 1.369665384292603, 2.807736635208130, 0.413199782371521
0.589019000000000, 1.362825870513916, 2.888859033584595, 0.337472498416901
0.589019200000000, 1.365561723709106, 2.964481830596924, 0.281021237373352
0.589019400000000, 1.375137090682983, 3.033229827880859, 0.241092279553413
0.589019600000000, 1.386080265045166, 3.090978145599365, 0.209424495697021
0.589019800000000, 1.395655632019043, 3.139101743698120, 0.181887298822403
0.589020000000000, 1.402495145797729, 3.177600622177124, 0.161234408617020
0.589020200000000, 1.407966852188110, 3.210599660873413, 0.143335223197937
0.589020400000000, 1.410702586174011, 3.238098859786987, 0.129566624760628
0.589020600000000, 1.410702586174011, 3.258723258972168, 0.117174878716469
0.589020800000000, 1.406598925590515, 3.273847818374634, 0.104783140122890
0.589021000000000, 1.399759411811829, 3.283472537994385, 0.091014541685581
0.589021200000000, 1.388816118240356, 3.290347337722778, 0.078622803092003
0.589021400000000, 1.377872824668884, 3.294472217559814, 0.066231057047844
0.589021600000000, 1.366929650306702, 3.297222137451172, 0.056593041867018
0.589021800000000, 1.357354283332825, 3.298597097396851, 0.046955019235611
0.589022000000000, 1.349146842956543, 3.301347017288208, 0.040070720016956
0.589022200000000, 1.343675255775452, 3.304096937179565, 0.034563280642033
0.589022400000000, 1.338203549385071, 3.305471897125244, 0.031809560954571
0.589022600000000, 1.335467815399170, 3.305471897125244, 0.033186420798302
0.589022800000000, 1.332731962203979, 3.293097257614136, 0.049708738923073
0.589023000000000, 1.334099888801575, 3.243598699569702, 0.106159999966621
0.589023200000000, 1.339571475982666, 3.125352144241333, 0.242469146847725
0.589023400000000, 1.350514769554138, 2.903983592987061, 0.487550228834152
0.589023600000000, 1.364193797111511, 2.578118324279785, 0.829011499881744
0.589023800000000, 1.377872824668884, 2.184880018234253, 1.211778640747070
0.589024000000000, 1.387448191642761, 1.782016754150391, 1.567008495330811
0.589024200000000, 1.394287705421448, 1.420402407646179, 1.854772210121155
0.589024400000000, 1.407966852188110, 1.123411178588867, 2.075069904327393
0.589024600000000, 1.435324907302856, 0.893792986869812, 2.256815433502197
0.589024800000000, 1.479097962379456, 0.717798173427582, 2.422038555145264
0.589025000000000, 1.528342604637146, 0.581677138805389, 2.576246976852417
0.589025200000000, 1.576219320297241, 0.477180242538452, 2.712556123733521
0.589025400000000, 1.614520788192749, 0.393307715654373, 2.828212261199951
0.589025600000000, 1.643246769905090, 0.328684628009796, 2.925969362258911
0.589025800000000, 1.662397503852844, 0.277811110019684, 3.011334657669067
0.589026000000000, 1.674708604812622, 0.237937301397324, 3.082931280136108
0.589026200000000, 1.678812384605408, 0.203563317656517, 3.140759468078613
0.589026400000000, 1.677444458007813, 0.173314198851585, 3.187572717666626
0.589026600000000, 1.671972870826721, 0.147189974784851, 3.223371028900146
0.589026800000000, 1.665133357048035, 0.123815663158894, 3.250908374786377
0.589027000000000, 1.656925916671753, 0.101816311478615, 3.271561145782471
0.589027200000000, 1.650086283683777, 0.079816959798336, 3.283952951431274
0.589027400000000, 1.643246769905090, 0.059192568063736, 3.292214155197144
0.589027600000000, 1.637775182723999, 0.041318096220493, 3.296344757080078
0.589027800000000, 1.633671402931213, 0.024818582460284, 3.300475120544434
0.589028000000000, 1.632303595542908, 0.011068988591433, 3.305982589721680
0.589028200000000, 1.630935668945313, 0.002819231478497, 3.312866926193237
0.589028400000000, 1.630935668945313, -0.004055565688759, 3.319751262664795
0.589028600000000, 1.630935668945313, -0.006805484648794, 3.326635599136353
0.589028800000000, 1.630935668945313, -0.008180444128811, 3.333519935607910
0.589029000000000, 1.630935668945313, -0.010930363088846, 3.340404272079468
0.589029200000000, 1.629567742347717, -0.012305323034525, 3.345911502838135
0.589029400000000, 1.626831889152527, -0.013680282048881, 3.351418972015381
0.589029600000000, 1.625463962554932, -0.015055241063237, 3.354172706604004
0.589029800000000, 1.622728228569031, -0.015055241063237, 3.356926441192627
0.589030000000000, 1.619992375373840, -0.015055241063237, 3.359680175781250
0.589030200000000, 1.617256522178650, -0.015055241063237, 3.362433910369873
0.589030400000000, 1.614520788192749, -0.016430201008916, 3.365187644958496
0.589030600000000, 1.611784934997559, -0.016430201008916, 3.369318246841431
0.589030800000000, 1.609049081802368, -0.017805160954595, 3.372071981430054
0.589031000000000, 1.606313347816467, -0.017805160954595, 3.374825716018677
0.589031200000000, 1.603577494621277, -0.019180119037628, 3.376202583312988
0.589031400000000, 1.600841641426086, -0.020555078983307, 3.378956317901611
0.589031600000000, 1.596737980842590, -0.021930038928986, 3.378956317901611
0.589031800000000, 1.594002127647400, -0.023304998874664, 3.378956317901611
0.589032000000000, 1.589898467063904, -0.024679956957698, 3.378956317901611
0.589032200000000, 1.587162613868713, -0.026054916903377, 3.380333185195923
0.589032400000000, 1.585794687271118, -0.026054916903377, 3.380333185195923
0.589032600000000, 1.587162613868713, -0.019180119037628, 3.380333185195923
0.589032800000000, 1.591266393661499, 0.005569150671363, 3.369318246841431
0.589033000000000, 1.602209568023682, 0.074317120015621, 3.325258731842041
0.589033200000000, 1.619992375373840, 0.224187701940536, 3.213732957839966
0.589033400000000, 1.647350549697876, 0.488179922103882, 3.011334657669067
0.589033600000000, 1.678812384605408, 0.860793948173523, 2.718063354492188
0.589033800000000, 1.697963118553162, 1.284281492233276, 2.364210367202759
0.589034000000000, 1.688387751579285, 1.673395037651062, 1.993835091590881
0.589034200000000, 1.637775182723999, 1.971761226654053, 1.642735838890076
0.589034400000000, 1.557068705558777, 2.178005218505859, 1.331565380096436
0.589034600000000, 1.470890522003174, 2.325125694274902, 1.067208290100098
0.589034800000000, 1.399759411811829, 2.451622009277344, 0.853794991970062
0.589035000000000, 1.350514769554138, 2.571243524551392, 0.685818076133728
0.589035200000000, 1.319052934646606, 2.682615280151367, 0.552262663841248
0.589035400000000, 1.298534274101257, 2.780237436294556, 0.446244418621063
0.589035600000000, 1.287590980529785, 2.864109992980957, 0.363632827997208
0.589035800000000, 1.286223173141479, 2.939732551574707, 0.300297260284424
0.589036000000000, 1.294430613517761, 3.011230468750000, 0.256237745285034
0.589036200000000, 1.305373787879944, 3.073103666305542, 0.223193109035492
0.589036400000000, 1.314949154853821, 3.125352144241333, 0.195655897259712
0.589036600000000, 1.323156595230103, 3.167975902557373, 0.172249287366867
0.589036800000000, 1.329996109008789, 3.200974941253662, 0.152973234653473
0.589037000000000, 1.334099888801575, 3.224349260330200, 0.137827783823013
0.589037200000000, 1.332731962203979, 3.224349260330200, 0.124059177935123
0.589037400000000, 1.323156595230103, 3.170725822448730, 0.108913719654083
0.589037600000000, 1.299902200698853, 3.029104948043823, 0.092391401529312
0.589037800000000, 1.252025485038757, 2.773362636566162, 0.073115363717079
0.589038000000000, 1.174054741859436, 2.414498090744019, 0.052462458610535
0.589038200000000, 1.072829723358154, 2.008885145187378, 0.029055839404464
0.589038400000000, 0.985283613204956, 1.621146559715271, 0.007026079576463
0.589038600000000, 0.967500865459442, 1.296656131744385, -0.008119380101562
0.589038800000000, 1.072829723358154, 1.045038461685181, -0.017757400870323
0.589039000000000, 1.306741714477539, 0.848419308662415, -0.020511120557785
0.589039200000000, 1.619992375373840, 0.690298974514008, -0.016380541026592
0.589039400000000, 1.931875109672546, 0.559677839279175, -0.001235080417246
0.589039600000000, 2.165787220001221, 0.449681043624878, 0.045578159391880
0.589039800000000, 2.273851871490479, 0.363058596849442, 0.155726954340935
0.589040000000000, 2.235550403594971, 0.294310629367828, 0.367763400077820
0.589040200000000, 2.053618907928467, 0.236562341451645, 0.687194943428040
0.589040400000000, 1.770462155342102, 0.184313878417015, 1.072715759277344
0.589040600000000, 1.450371980667114, 0.129315495491028, 1.458236575126648
0.589040800000000, 1.152168273925781, 0.072942167520523, 1.788682937622070
0.589041000000000, 0.910048782825470, 0.019318744540215, 2.048909425735474
0.589041200000000, 0.724013447761536, -0.023304998874664, 2.254061698913574
0.589041400000000, 0.581751167774200, -0.053554106503725, 2.427546024322510
0.589041600000000, 0.470950692892075, -0.071428582072258, 2.580377340316772
0.589041800000000, 0.380668848752975, -0.082428254187107, 2.712556123733521
0.589042000000000, 0.309537708759308, -0.089303053915501, 2.825458526611328
0.589042200000000, 0.253453522920609, -0.092052973806858, 2.920461893081665
0.589042400000000, 0.208312600851059, -0.093427933752537, 3.000319719314575
0.589042600000000, 0.174114927649498, -0.092052973806858, 3.067785978317261
0.589042800000000, 0.145388886332512, -0.090678013861179, 3.122860193252563
0.589043000000000, 0.122134476900101, -0.090678013861179, 3.169673442840576
0.589043200000000, 0.100247971713543, -0.092052973806858, 3.205471992492676
0.589043400000000, 0.082465179264545, -0.093427933752537, 3.235762834548950
0.589043600000000, 0.067418202757835, -0.096177853643894, 3.259169340133667
0.589043800000000, 0.053739137947559, -0.098927766084671, 3.277068614959717
0.589044000000000, 0.042795885354280, -0.101677685976028, 3.290837287902832
0.589044200000000, 0.034588444977999, -0.105802565813065, 3.299098491668701
0.589044400000000, 0.026381004601717, -0.108552485704422, 3.307359457015991
0.589044600000000, 0.018173562362790, -0.111302405595779, 3.314243793487549
0.589044800000000, 0.011334029026330, -0.112677365541458, 3.322504997253418
0.589045000000000, 0.004494495689869, -0.114052325487137, 3.330766201019287
0.589045200000000, 0.000390775298001, -0.112677365541458, 3.339027404785156
0.589045400000000, -0.002345038112253, -0.109927445650101, 3.345911502838135
0.589045600000000, -0.003712944919243, -0.108552485704422, 3.351418972015381
0.589045800000000, -0.005080851726234, -0.108552485704422, 3.356926441192627
0.589046000000000, -0.007816664874554, -0.109927445650101, 3.359680175781250
0.589046200000000, -0.009184571914375, -0.109927445650101, 3.362433910369873
0.589046400000000, -0.010552478954196, -0.109927445650101, 3.363810777664185
0.589046600000000, -0.011920385062695, -0.108552485704422, 3.363810777664185
0.589046800000000, -0.011920385062695, -0.107177525758743, 3.365187644958496
0.589047000000000, -0.011920385062695, -0.107177525758743, 3.367941379547119
0.589047200000000, -0.011920385062695, -0.108552485704422, 3.372071981430054
0.589047400000000, -0.011920385062695, -0.108552485704422, 3.376202583312988
0.589047600000000, -0.013288292102516, -0.109927445650101, 3.378956317901611
0.589047800000000, -0.013288292102516, -0.109927445650101, 3.380333185195923
0.589048000000000, -0.014656199142337, -0.111302405595779, 3.380333185195923
0.589048200000000, -0.016024105250835, -0.112677365541458, 3.381710052490234
0.589048400000000, -0.017392013221979, -0.114052325487137, 3.381710052490234
0.589048600000000, -0.017392013221979, -0.112677365541458, 3.383086919784546
0.589048800000000, -0.016024105250835, -0.112677365541458, 3.385840654373169
0.589049000000000, -0.014656199142337, -0.109927445650101, 3.388594388961792
0.589049200000000, -0.009184571914375, -0.107177525758743, 3.389971256256104
0.589049400000000, 0.005862402264029, -0.103052645921707, 3.383086919784546
0.589049600000000, 0.055107045918703, -0.093427933752537, 3.351418972015381
0.589049800000000, 0.176850751042366, -0.074178501963615, 3.264676809310913
0.589050000000000, 0.408026993274689, -0.043929390609264, 3.089815616607666
0.589050200000000, 0.755475282669067, -0.006805484648794, 2.813066720962524
0.589050400000000, 1.171319007873535, 0.022068664431572, 2.453706264495850
0.589050600000000, 1.576219320297241, 0.028943462297320, 2.062678098678589
0.589050800000000, 1.907252788543701, 0.008319069631398, 1.689548969268799
0.589051000000000, 2.148004293441772, -0.034304674714804, 1.364610075950623
0.589051200000000, 2.323096513748169, -0.082428254187107, 1.094745516777039
0.589051400000000, 2.465358734130859, -0.122302077710629, 0.874447882175446
0.589051600000000, 2.593941926956177, -0.147051349282265, 0.699586689472198
0.589051800000000, 2.711581945419312, -0.159425988793373, 0.560523808002472
0.589052000000000, 2.816910743713379, -0.162175908684731, 0.451751857995987
0.589052200000000, 2.909928560256958, -0.159425988793373, 0.367763400077820
0.589052400000000, 2.990634918212891, -0.151176229119301, 0.304427832365036
